time/h,Ewe/V,timestep
0.000277056,3.2013,0
0.000555556,3.20234,0
0.000555667,3.21292,0
0.000559333,3.22295,0
0.000570389,3.23297,0
0.000584833,3.24299,0
0.000602111,3.25301,0
0.000621667,3.26309,0
0.000643167,3.27314,0
0.000666278,3.2832,0
0.000691111,3.29327,0
0.000717611,3.30332,0
0.000745056,3.31335,0
0.000773833,3.32338,0
0.000803556,3.33339,0
0.0008345,3.34346,0
0.000866444,3.35346,0
0.000899778,3.36349,0
0.000933667,3.37351,0
0.0009685,3.38354,0
0.001,3.39357,0
0.00104,3.40357,0
0.00108,3.41366,0
0.00112,3.42367,0
0.00116,3.43369,0
0.0012,3.44372,0
0.00124,3.45376,0
0.00128,3.46378,0
0.00132,3.47383,0
0.00137,3.48386,0
0.00141,3.49387,0
0.00146,3.5039,1
0.00151,3.51399,1
0.00156,3.52404,1
0.00161,3.53406,1
0.00166,3.54412,1
0.00171,3.55413,1
0.00177,3.56414,1
0.00183,3.57421,1
0.00189,3.58427,1
0.00195,3.59427,1
0.00202,3.60432,1
0.00209,3.61434,1
0.00216,3.62439,1
0.00224,3.63439,1
0.00232,3.64446,1
0.00241,3.65453,1
0.00252,3.66455,1
0.00264,3.67456,1
0.00279,3.68457,1
0.00302,3.69458,1
0.00527,3.68456,1
0.00746,3.67455,1
0.0158,3.66485,1
0.02413,3.66179,1
0.03246,3.66045,1
0.0408,3.66008,1
0.04913,3.65994,1
0.05746,3.66059,1
0.0658,3.66143,1
0.07413,3.66247,1
0.08246,3.66365,1
0.0908,3.66501,2
0.09913,3.66648,2
0.10746,3.66807,2
0.1158,3.66971,2
0.12413,3.67134,2
0.13246,3.673,2
0.1408,3.67476,2
0.14913,3.67643,2
0.15746,3.67826,2
0.1658,3.67997,2
0.17413,3.68184,2
0.18246,3.68359,2
0.1908,3.68534,2
0.19913,3.6872,2
0.20746,3.68908,2
0.2158,3.6909,2
0.22413,3.69246,2
0.23246,3.69439,2
0.2408,3.6963,2
0.24913,3.69806,2
0.25746,3.69978,2
0.2658,3.70157,2
0.27413,3.70327,2
0.28246,3.7051,2
0.2908,3.70665,2
0.29913,3.70835,2
0.30746,3.70992,2
0.3158,3.7116,2
0.32413,3.71318,2
0.33246,3.71496,2
0.3408,3.71644,3
0.34913,3.71801,3
0.35746,3.71958,3
0.3658,3.72105,3
0.37413,3.72259,3
0.38246,3.72399,3
0.3908,3.72533,3
0.39913,3.72701,3
0.40746,3.72824,3
0.4158,3.72969,3
0.42413,3.73107,3
0.43246,3.73238,3
0.4408,3.73376,3
0.44913,3.73503,3
0.45746,3.73622,3
0.4658,3.73746,3
0.47413,3.73886,3
0.48246,3.7401,3
0.4908,3.74119,3
0.49913,3.74254,3
0.50746,3.7437,3
0.5158,3.7448,3
0.52413,3.74595,3
0.53246,3.74701,3
0.5408,3.74807,3
0.54913,3.7491,3
0.55746,3.75038,3
0.5658,3.75146,3
0.57413,3.75245,3
0.58246,3.75355,3
0.5908,3.75455,3
0.59913,3.75563,4
0.60746,3.75664,4
0.6158,3.75774,4
0.62413,3.75865,4
0.63246,3.75975,4
0.6408,3.76051,4
0.64913,3.76149,4
0.65746,3.7624,4
0.6658,3.76351,4
0.67413,3.76435,4
0.68246,3.76538,4
0.6908,3.76619,4
0.69913,3.76703,4
0.70746,3.76791,4
0.7158,3.76873,4
0.72413,3.76956,4
0.73246,3.77063,4
0.7408,3.77141,4
0.74913,3.77213,4
0.75746,3.77307,4
0.7658,3.77404,4
0.77413,3.77484,4
0.78246,3.77559,4
0.7908,3.77647,4
0.79913,3.77734,4
0.80746,3.77805,4
0.8158,3.77883,4
0.82413,3.77972,4
0.83246,3.78038,4
0.8408,3.78125,4
0.84913,3.78199,4
0.85746,3.78279,5
0.8658,3.78368,5
0.87413,3.78427,5
0.88246,3.78507,5
0.8908,3.78577,5
0.89913,3.78656,5
0.90746,3.78737,5
0.9158,3.78803,5
0.92413,3.7889,5
0.93246,3.78976,5
0.9408,3.79034,5
0.94913,3.79117,5
0.95746,3.79188,5
0.9658,3.7926,5
0.97413,3.79328,5
0.98246,3.79409,5
0.9908,3.79462,5
0.99913,3.79546,5
1.00746,3.79615,5
1.0158,3.79672,5
1.02413,3.7976,5
1.03246,3.79826,5
1.0408,3.79899,5
1.04913,3.79954,5
1.05746,3.80033,5
1.0658,3.801,5
1.07413,3.80184,5
1.08246,3.80235,5
1.0908,3.80301,5
1.09913,3.80376,5
1.10746,3.80427,6
1.1158,3.80513,6
1.12413,3.80584,6
1.13246,3.80651,6
1.1408,3.80713,6
1.14913,3.80774,6
1.15746,3.80843,6
1.1658,3.8093,6
1.17413,3.80986,6
1.18246,3.8106,6
1.1908,3.81122,6
1.19913,3.81182,6
1.20746,3.81234,6
1.2158,3.81311,6
1.22413,3.81376,6
1.23246,3.81441,6
1.2408,3.81503,6
1.24913,3.81571,6
1.25746,3.81637,6
1.2658,3.8169,6
1.27413,3.81754,6
1.28246,3.81827,6
1.2908,3.81899,6
1.29913,3.81959,6
1.30746,3.82017,6
1.3158,3.82092,6
1.32413,3.82153,6
1.33246,3.82209,6
1.3408,3.82281,6
1.34913,3.82351,6
1.35746,3.82413,6
1.3658,3.82463,7
1.37413,3.82546,7
1.38246,3.8261,7
1.3908,3.82663,7
1.39913,3.82727,7
1.40746,3.82794,7
1.4158,3.82863,7
1.42413,3.82924,7
1.43246,3.82991,7
1.4408,3.83042,7
1.44913,3.8311,7
1.45746,3.83171,7
1.4658,3.83234,7
1.47413,3.83307,7
1.48246,3.8337,7
1.4908,3.8344,7
1.49913,3.83508,7
1.50746,3.83568,7
1.5158,3.8362,7
1.52413,3.83692,7
1.53246,3.83769,7
1.5408,3.83828,7
1.54913,3.83893,7
1.55746,3.83961,7
1.5658,3.84034,7
1.57413,3.84095,7
1.58246,3.8416,7
1.5908,3.84242,7
1.59913,3.84301,7
1.60746,3.84371,7
1.6158,3.84432,8
1.62413,3.84498,8
1.63246,3.84578,8
1.6408,3.84643,8
1.64913,3.84709,8
1.65746,3.84782,8
1.6658,3.84842,8
1.67413,3.84921,8
1.68246,3.84989,8
1.6908,3.85067,8
1.69913,3.85134,8
1.70746,3.85206,8
1.7158,3.85273,8
1.72413,3.85344,8
1.73246,3.8542,8
1.7408,3.85489,8
1.74913,3.85569,8
1.75746,3.85638,8
1.7658,3.85726,8
1.77413,3.8579,8
1.78246,3.85866,8
1.7908,3.85941,8
1.79913,3.86017,8
1.80746,3.86101,8
1.8158,3.86164,8
1.82413,3.86259,8
1.83246,3.86318,8
1.8408,3.86408,8
1.84913,3.86469,8
1.85746,3.86565,8
1.8658,3.8664,8
1.87413,3.86727,9
1.88246,3.86808,9
1.8908,3.86881,9
1.89913,3.86961,9
1.90746,3.87054,9
1.9158,3.87128,9
1.92413,3.87213,9
1.93246,3.87288,9
1.9408,3.87379,9
1.94913,3.87471,9
1.95746,3.87551,9
1.9658,3.87637,9
1.97413,3.87731,9
1.98246,3.87806,9
1.9908,3.87905,9
1.99913,3.87988,9
2.00746,3.88072,9
2.0158,3.88164,9
2.02413,3.88261,9
2.03246,3.88348,9
2.0408,3.88436,9
2.04913,3.8853,9
2.05746,3.88618,9
2.0658,3.88712,9
2.07413,3.88787,9
2.08246,3.88888,9
2.0908,3.88984,9
2.09913,3.89083,9
2.10746,3.89162,9
2.1158,3.89264,9
2.12413,3.89361,9
2.13246,3.89455,10
2.1408,3.89546,10
2.14913,3.89649,10
2.15746,3.89738,10
2.1658,3.8983,10
2.17413,3.89933,10
2.18246,3.90025,10
2.1908,3.90132,10
2.19913,3.90228,10
2.20746,3.90318,10
2.2158,3.90421,10
2.22413,3.9052,10
2.23246,3.90617,10
2.2408,3.90719,10
2.24913,3.90823,10
2.25746,3.90926,10
2.2658,3.91025,10
2.27413,3.91113,10
2.28246,3.91232,10
2.2908,3.91325,10
2.29913,3.91428,10
2.30746,3.91528,10
2.3158,3.91636,10
2.32413,3.91735,10
2.33246,3.91845,10
2.3408,3.91938,10
2.34913,3.92047,10
2.35746,3.92148,10
2.3658,3.92238,10
2.37413,3.92357,10
2.38246,3.92467,11
2.3908,3.92573,11
2.39913,3.92682,11
2.40746,3.92782,11
2.4158,3.92895,11
2.42413,3.93,11
2.43246,3.93088,11
2.4408,3.93204,11
2.44913,3.93313,11
2.45746,3.93419,11
2.4658,3.93524,11
2.47413,3.9364,11
2.48246,3.93752,11
2.4908,3.93849,11
2.49913,3.93959,11
2.50746,3.94076,11
2.5158,3.94169,11
2.52413,3.94285,11
2.53246,3.9439,11
2.5408,3.9451,11
2.54913,3.94607,11
2.55746,3.94721,11
2.5658,3.94834,11
2.57413,3.94934,11
2.58246,3.95044,11
2.5908,3.9516,11
2.59913,3.95272,11
2.60746,3.95379,11
2.6158,3.95486,11
2.62413,3.95589,11
2.63246,3.95722,11
2.6408,3.95823,12
2.64913,3.95929,12
2.65746,3.96045,12
2.6658,3.96141,12
2.67413,3.96263,12
2.68246,3.96363,12
2.6908,3.96485,12
2.69913,3.96595,12
2.70746,3.96707,12
2.7158,3.96817,12
2.72413,3.96931,12
2.73246,3.97046,12
2.7408,3.9715,12
2.74913,3.97263,12
2.75746,3.97383,12
2.7658,3.97483,12
2.77413,3.97613,12
2.78246,3.97708,12
2.7908,3.97842,12
2.79913,3.97957,12
2.80746,3.98051,12
2.8158,3.98167,12
2.82413,3.98271,12
2.83246,3.98401,12
2.8408,3.98505,12
2.84913,3.98607,12
2.85746,3.98729,12
2.8658,3.98831,12
2.87413,3.98951,12
2.88246,3.99054,12
2.8908,3.99178,13
2.89913,3.99289,13
2.90746,3.99397,13
2.9158,3.99514,13
2.92413,3.99625,13
2.93246,3.99736,13
2.9408,3.99849,13
2.94913,3.99971,13
2.95746,4.0008,13
2.9658,4.00193,13
2.97413,4.00303,13
2.98246,4.00416,13
2.9908,4.00533,13
2.99913,4.00648,13
3.00746,4.00774,13
3.0158,4.00871,13
3.02413,4.0098,13
3.03246,4.01115,13
3.0408,4.01212,13
3.04913,4.01334,13
3.05746,4.01442,13
3.0658,4.01557,13
3.07413,4.01677,13
3.08246,4.01799,13
3.0908,4.01908,13
3.09913,4.02008,13
3.10746,4.02138,13
3.1158,4.02244,13
3.12413,4.0237,13
3.13246,4.02481,13
3.1408,4.02589,13
3.14913,4.02712,14
3.15746,4.02829,14
3.1658,4.02936,14
3.17413,4.03054,14
3.18246,4.0317,14
3.1908,4.03284,14
3.19913,4.03399,14
3.20746,4.03516,14
3.2158,4.03628,14
3.22413,4.03746,14
3.23246,4.03874,14
3.2408,4.0398,14
3.24913,4.04094,14
3.25746,4.0421,14
3.2658,4.04327,14
3.27413,4.04442,14
3.28246,4.04565,14
3.2908,4.04685,14
3.29913,4.04792,14
3.30746,4.04913,14
3.3158,4.05026,14
3.32413,4.05133,14
3.33246,4.05259,14
3.3408,4.05383,14
3.34913,4.05482,14
3.35746,4.056,14
3.3658,4.05721,14
3.37413,4.05846,14
3.38246,4.05972,14
3.3908,4.0608,14
3.39913,4.06192,14
3.40746,4.06315,15
3.4158,4.06432,15
3.42413,4.06558,15
3.43246,4.06665,15
3.4408,4.06795,15
3.44913,4.06904,15
3.45746,4.0702,15
3.4658,4.07146,15
3.47413,4.07264,15
3.48246,4.0738,15
3.4908,4.07501,15
3.49913,4.07618,15
3.50746,4.07748,15
3.5158,4.07867,15
3.52413,4.0798,15
3.53246,4.08108,15
3.5408,4.08228,15
3.54913,4.08344,15
3.55746,4.08461,15
3.5658,4.0858,15
3.57413,4.08704,15
3.58246,4.08821,15
3.5908,4.08946,15
3.59913,4.09069,15
3.60746,4.09181,15
3.6158,4.09314,15
3.62413,4.09431,15
3.63246,4.09565,15
3.6408,4.09675,15
3.64913,4.09815,15
3.65746,4.0991,16
3.6658,4.10051,16
3.67413,4.1017,16
3.68246,4.10301,16
3.6908,4.10421,16
3.69913,4.10542,16
3.70746,4.10668,16
3.7158,4.10787,16
3.72413,4.10912,16
3.73246,4.11049,16
3.7408,4.11175,16
3.74913,4.11294,16
3.75746,4.11422,16
3.7658,4.11544,16
3.77413,4.11675,16
3.78246,4.11796,16
3.7908,4.11927,16
3.79913,4.12056,16
3.80746,4.12181,16
3.8158,4.12317,16
3.82413,4.12432,16
3.83246,4.12567,16
3.8408,4.12696,16
3.84913,4.12816,16
3.85746,4.12961,16
3.8658,4.13068,16
3.87413,4.13197,16
3.88246,4.13341,16
3.8908,4.13461,16
3.89913,4.13587,16
3.90746,4.13721,16
3.9158,4.13853,17
3.92413,4.13992,17
3.93246,4.14111,17
3.9408,4.14238,17
3.94913,4.14358,17
3.95746,4.14523,17
3.9658,4.14642,17
3.97413,4.14768,17
3.98246,4.14911,17
3.9908,4.15033,17
3.99913,4.15171,17
4.00746,4.153,17
4.0158,4.15442,17
4.02413,4.15569,17
4.03246,4.15692,17
4.0408,4.15838,17
4.04913,4.15963,17
4.05746,4.16103,17
4.0658,4.16234,17
4.07413,4.1637,17
4.08246,4.16503,17
4.0908,4.1665,17
4.09913,4.16772,17
4.10746,4.16911,17
4.1158,4.17051,17
4.12413,4.17201,17
4.13246,4.17331,17
4.1408,4.17476,17
4.14913,4.17606,17
4.15746,4.17742,17
4.1658,4.1788,17
4.17413,4.18008,18
4.18246,4.1815,18
4.1908,4.18291,18
4.19913,4.18423,18
4.20746,4.18567,18
4.2158,4.18709,18
4.22413,4.1885,18
4.23246,4.18984,18
4.2408,4.19124,18
4.24913,4.19264,18
4.25746,4.19409,18
4.2658,4.19546,18
4.27413,4.19688,18
4.28246,4.19837,18
4.2908,4.19978,18
4.29913,4.20129,18
4.30746,4.20256,18
4.3158,4.20401,18
4.32413,4.20553,18
4.33246,4.20695,18
4.3408,4.20843,18
4.34913,4.20978,18
4.35746,4.21118,18
4.3658,4.21251,18
4.37413,4.21399,18
4.38246,4.21564,18
4.3908,4.21686,18
4.39913,4.21838,18
4.40746,4.21985,18
4.4158,4.22128,18
4.42413,4.22281,19
4.43246,4.22414,19
4.4408,4.22562,19
4.44913,4.22714,19
4.45746,4.22864,19
4.4658,4.22998,19
4.47413,4.23156,19
4.48246,4.23298,19
4.4908,4.23452,19
4.49913,4.23585,19
4.50746,4.23737,19
4.5158,4.23891,19
4.52413,4.24038,19
4.53246,4.24182,19
4.5408,4.24331,19
4.54913,4.24477,19
4.55746,4.24634,19
4.5658,4.24788,19
4.57413,4.24919,19
4.58246,4.25089,19
4.5908,4.25231,19
4.59913,4.25379,19
4.60746,4.25522,19
4.6158,4.25684,19
4.62413,4.25831,19
4.63246,4.25983,19
4.6408,4.26135,19
4.64913,4.26274,19
4.65746,4.26433,19
4.6658,4.26572,19
4.67413,4.2674,19
4.68246,4.26878,20
4.6908,4.27035,20
4.69913,4.27176,20
4.70746,4.27337,20
4.7158,4.27487,20
4.72413,4.27656,20
4.73246,4.27798,20
4.7408,4.27955,20
4.74913,4.28108,20
4.75746,4.28264,20
4.7658,4.2841,20
4.77413,4.28576,20
4.78246,4.28719,20
4.7908,4.28876,20
4.79913,4.29026,20
4.80746,4.29186,20
4.8158,4.29347,20
4.82413,4.29502,20
4.83246,4.29659,20
4.8408,4.29799,20
4.84913,4.29962,20
4.85746,4.30119,20
4.8658,4.30268,20
4.87413,4.3043,20
4.88246,4.30572,20
4.8908,4.3075,20
4.89913,4.30889,20
4.90746,4.31055,20
4.9158,4.31219,20
4.92413,4.31366,20
4.93246,4.31535,21
4.9408,4.31687,21
4.94913,4.31852,21
4.95746,4.32012,21
4.9658,4.32163,21
4.97413,4.32329,21
4.98246,4.32486,21
4.9908,4.32646,21
4.99913,4.32801,21
5.00746,4.32951,21
5.0158,4.33131,21
5.02413,4.33283,21
5.03246,4.33433,21
5.0408,4.33595,21
5.04913,4.33749,21
5.05746,4.33899,21
5.0658,4.34058,21
5.07413,4.34224,21
5.08246,4.34378,21
5.0908,4.34541,21
5.09913,4.34692,21
5.10746,4.34856,21
5.1158,4.35005,21
5.12413,4.35162,21
5.13246,4.3532,21
5.1408,4.35476,21
5.14913,4.35632,21
5.15746,4.35786,21
5.1658,4.35934,21
5.17413,4.3609,21
5.18246,4.36232,21
5.1908,4.36385,22
5.19913,4.36531,22
5.20746,4.36681,22
5.2158,4.36839,22
5.22413,4.3697,22
5.23246,4.3712,22
5.2408,4.37262,22
5.24913,4.37412,22
5.25746,4.37552,22
5.2658,4.37684,22
5.27413,4.37831,22
5.28246,4.37973,22
5.2908,4.38112,22
5.29913,4.38262,22
5.30746,4.38398,22
5.3158,4.38515,22
5.32413,4.38663,22
5.33246,4.38771,22
5.3408,4.3891,22
5.34913,4.39028,22
5.35746,4.39157,22
5.3658,4.3929,22
5.37413,4.3941,22
5.38246,4.3954,22
5.3908,4.39646,22
5.39913,4.39786,22
5.40746,4.39885,22
5.4158,4.40014,22
5.42413,4.40125,22
5.43246,4.4025,22
5.4408,4.40358,22
5.44913,4.40472,23
5.45746,4.40589,23
5.4658,4.40692,23
5.47413,4.40817,23
5.48246,4.40927,23
5.4908,4.41034,23
5.49913,4.41148,23
5.50746,4.41245,23
5.5158,4.41342,23
5.52413,4.41459,23
5.53246,4.41558,23
5.5408,4.4166,23
5.54913,4.41766,23
5.55746,4.41862,23
5.5658,4.41956,23
5.57413,4.42058,23
5.58246,4.42152,23
5.5908,4.42253,23
5.59913,4.42344,23
5.60746,4.42449,23
5.6158,4.42544,23
5.62413,4.42643,23
5.63246,4.4272,23
5.6408,4.42831,23
5.64913,4.42933,23
5.65746,4.43021,23
5.6658,4.43113,23
5.67413,4.43194,23
5.68246,4.43281,23
5.6908,4.43368,23
5.69913,4.43468,24
5.70746,4.43552,24
5.7158,4.4364,24
5.72413,4.43738,24
5.73246,4.43824,24
5.7408,4.43903,24
5.74913,4.43984,24
5.75746,4.44067,24
5.7658,4.44168,24
5.77413,4.44237,24
5.78246,4.44314,24
5.7908,4.44402,24
5.79913,4.44482,24
5.80746,4.44559,24
5.8158,4.44626,24
5.82413,4.44728,24
5.83246,4.44801,24
5.8408,4.44884,24
5.84913,4.44953,24
5.85746,4.45031,24
5.8658,4.45107,24
5.87413,4.45186,24
5.88246,4.45263,24
5.8908,4.4535,24
5.89913,4.45415,24
5.90746,4.45489,24
5.9158,4.45556,24
5.92413,4.45625,24
5.93246,4.45716,24
5.9408,4.4578,24
5.94913,4.45859,24
5.95746,4.45921,25
5.9658,4.45992,25
5.97413,4.46076,25
5.98246,4.46139,25
5.9908,4.46201,25
5.99913,4.46275,25
6.00746,4.46343,25
6.0158,4.46413,25
6.02413,4.46481,25
6.03246,4.46533,25
6.0408,4.46599,25
6.04913,4.46666,25
6.05746,4.46732,25
6.0658,4.46801,25
6.07413,4.46869,25
6.08246,4.46937,25
6.0908,4.47,25
6.09913,4.47067,25
6.10746,4.47135,25
6.1158,4.472,25
6.12413,4.47255,25
6.13246,4.47313,25
6.1408,4.47381,25
6.14913,4.47447,25
6.15746,4.47497,25
6.1658,4.47568,25
6.17413,4.47624,25
6.18246,4.47681,25
6.1908,4.47747,25
6.19913,4.47797,25
6.20746,4.47863,26
6.2158,4.47911,26
6.22413,4.47978,26
6.23246,4.4803,26
6.2408,4.48088,26
6.24913,4.48153,26
6.25746,4.48204,26
6.2658,4.4826,26
6.27413,4.48318,26
6.28246,4.48359,26
6.2908,4.48416,26
6.29913,4.48462,26
6.30746,4.48519,26
6.3158,4.48583,26
6.32413,4.48635,26
6.33246,4.48695,26
6.3408,4.48758,26
6.34913,4.48816,26
6.35746,4.48881,26
6.3658,4.48916,26
6.37413,4.48967,26
6.38246,4.49022,26
6.3908,4.49081,26
6.39913,4.49127,26
6.40746,4.49169,26
6.4158,4.49234,26
6.42413,4.49272,26
6.43246,4.49321,26
6.4408,4.49375,26
6.44913,4.49428,26
6.45746,4.4946,26
6.4658,4.49517,27
6.47413,4.4956,27
6.48246,4.49607,27
6.4908,4.49652,27
6.49913,4.49715,27
6.50746,4.49745,27
6.5158,4.49795,27
6.52413,4.49827,27
6.53246,4.49881,27
6.5408,4.49924,27
6.54913,4.49968,27
6.55746,4.50004,27
6.5658,4.50052,27
6.57413,4.50092,27
6.58246,4.50119,27
6.5908,4.50163,27
6.59913,4.50207,27
6.60746,4.50259,27
6.6158,4.50292,27
6.62413,4.50332,27
6.63246,4.50366,27
6.6408,4.50411,27
6.64913,4.50442,27
6.65746,4.50498,27
6.6658,4.50531,27
6.67413,4.50579,27
6.68246,4.50622,27
6.6908,4.50651,27
6.69913,4.50699,27
6.70746,4.50724,27
6.7158,4.50774,27
6.72413,4.50813,28
6.73246,4.50858,28
6.7408,4.50906,28
6.74913,4.5094,28
6.75746,4.50971,28
6.7658,4.51,28
6.77413,4.51043,28
6.78246,4.51078,28
6.7908,4.51103,28
6.79913,4.51135,28
6.80746,4.51169,28
6.8158,4.51198,28
6.82413,4.51233,28
6.83246,4.51272,28
6.8408,4.51306,28
6.84913,4.51352,28
6.85746,4.51368,28
6.8658,4.51415,28
6.87413,4.5144,28
6.88246,4.51468,28
6.8908,4.51502,28
6.89913,4.51534,28
6.90746,4.51565,28
6.9158,4.51615,28
6.92413,4.51652,28
6.93246,4.51679,28
6.9408,4.51716,28
6.94913,4.51733,28
6.95746,4.51773,28
6.9658,4.51815,28
6.97413,4.51841,29
6.98246,4.51887,29
6.9908,4.51911,29
6.99913,4.51962,29
7.00746,4.5197,29
7.0158,4.51991,29
7.02413,4.52031,29
7.03246,4.52062,29
7.0408,4.52076,29
7.04913,4.52108,29
7.05746,4.52152,29
7.0658,4.52159,29
7.07413,4.52199,29
7.08246,4.52208,29
7.0908,4.52241,29
7.09913,4.52272,29
7.10746,4.52299,29
7.1158,4.52317,29
7.12413,4.52357,29
7.13246,4.52372,29
7.1408,4.52386,29
7.14913,4.52428,29
7.15746,4.52448,29
7.1658,4.52481,29
7.17413,4.52494,29
7.18246,4.52524,29
7.1908,4.52566,29
7.19913,4.52581,29
7.20746,4.52602,29
7.2158,4.52641,29
7.22413,4.52667,29
7.23246,4.52709,30
7.2408,4.5272,30
7.24913,4.52762,30
7.25746,4.5277,30
7.2658,4.52795,30
7.27413,4.52802,30
7.28246,4.52835,30
7.2908,4.52867,30
7.29913,4.52879,30
7.30746,4.52896,30
7.3158,4.52925,30
7.32413,4.52936,30
7.33246,4.52967,30
7.3408,4.52995,30
7.34913,4.53015,30
7.35746,4.53029,30
7.3658,4.53058,30
7.37413,4.53096,30
7.38246,4.53109,30
7.3908,4.53129,30
7.39913,4.5316,30
7.40746,4.53185,30
7.4158,4.53203,30
7.42413,4.53236,30
7.43246,4.53254,30
7.4408,4.53274,30
7.44913,4.53295,30
7.45746,4.53334,30
7.4658,4.53353,30
7.47413,4.53383,30
7.48246,4.5341,30
7.4908,4.53434,31
7.49913,4.53444,31
7.50746,4.53469,31
7.5158,4.53488,31
7.52413,4.53511,31
7.53246,4.53531,31
7.5408,4.53545,31
7.54913,4.53571,31
7.55746,4.53586,31
7.5658,4.53621,31
7.57413,4.53613,31
7.58246,4.53646,31
7.5908,4.53664,31
7.59913,4.53686,31
7.60746,4.53705,31
7.6158,4.53718,31
7.62413,4.53734,31
7.63246,4.53753,31
7.6408,4.53786,31
7.64913,4.5381,31
7.65746,4.53839,31
7.6658,4.53853,31
7.67413,4.53874,31
7.68246,4.53893,31
7.6908,4.5393,31
7.69913,4.5393,31
7.70746,4.5396,31
7.7158,4.53998,31
7.72413,4.54028,31
7.73246,4.54045,31
7.7408,4.54056,32
7.74913,4.54091,32
7.75746,4.54106,32
7.7658,4.54125,32
7.77413,4.54138,32
7.78246,4.54167,32
7.7908,4.5417,32
7.79913,4.54187,32
7.80746,4.54218,32
7.8158,4.54221,32
7.82413,4.54248,32
7.83246,4.54259,32
7.8408,4.54283,32
7.84913,4.54307,32
7.85746,4.5433,32
7.8658,4.54329,32
7.87413,4.54345,32
7.88246,4.54357,32
7.8908,4.54382,32
7.89913,4.54394,32
7.90746,4.54408,32
7.9158,4.54431,32
7.92413,4.54442,32
7.93246,4.54455,32
7.9408,4.54477,32
7.94913,4.54495,32
7.95746,4.54513,32
7.96579,4.54539,32
7.97413,4.54559,32
7.98246,4.54587,32
7.99079,4.54617,32
7.99913,4.54626,33
8.00746,4.54654,33
8.01579,4.54666,33
8.02413,4.54665,33
8.03246,4.54712,33
8.04079,4.54722,33
8.04913,4.54732,33
8.05746,4.54757,33
8.06579,4.54771,33
8.07413,4.54807,33
8.08246,4.54816,33
8.09079,4.54838,33
8.09913,4.54846,33
8.10746,4.54867,33
8.11579,4.54887,33
8.12413,4.54898,33
8.13246,4.54922,33
8.14079,4.5493,33
8.14913,4.54941,33
8.15746,4.54967,33
8.16579,4.54977,33
8.17413,4.55013,33
8.18246,4.55021,33
8.19079,4.55032,33
8.19913,4.5505,33
8.20746,4.55059,33
8.21579,4.55079,33
8.22413,4.55114,33
8.23246,4.55128,33
8.24079,4.55153,33
8.24913,4.55167,34
8.25746,4.55178,34
8.26579,4.5519,34
8.27413,4.55209,34
8.28246,4.5522,34
8.29079,4.55246,34
8.29913,4.55257,34
8.30746,4.55297,34
8.31579,4.55299,34
8.32413,4.55323,34
8.33246,4.55347,34
8.34079,4.55379,34
8.34913,4.55393,34
8.35746,4.55416,34
8.36579,4.55426,34
8.37413,4.55442,34
8.38246,4.55452,34
8.39079,4.55487,34
8.39913,4.55494,34
8.40746,4.55512,34
8.41579,4.55526,34
8.42413,4.55545,34
8.43246,4.55559,34
8.44079,4.55577,34
8.44913,4.55604,34
8.45746,4.55615,34
8.46579,4.55631,34
8.47413,4.55657,34
8.48246,4.55676,34
8.49079,4.55695,34
8.49913,4.5572,34
8.50746,4.55735,35
8.51579,4.55739,35
8.52413,4.55749,35
8.53246,4.55785,35
8.54079,4.55782,35
8.54913,4.5579,35
8.55746,4.55825,35
8.56579,4.55828,35
8.57413,4.5586,35
8.58246,4.55876,35
8.59079,4.55898,35
8.59913,4.55925,35
8.60746,4.55928,35
8.61579,4.55963,35
8.62413,4.55987,35
8.63246,4.55992,35
8.64079,4.56006,35
8.64913,4.56037,35
8.65746,4.56051,35
8.66579,4.56068,35
8.67413,4.56078,35
8.68246,4.56098,35
8.69079,4.56118,35
8.69913,4.56125,35
8.70746,4.56157,35
8.71579,4.56177,35
8.72413,4.56202,35
8.73246,4.56226,35
8.74079,4.56246,35
8.74913,4.56273,35
8.75746,4.56293,35
8.76579,4.56291,36
8.77413,4.56294,36
8.78246,4.56316,36
8.79079,4.56336,36
8.79913,4.56348,36
8.80746,4.56366,36
8.81579,4.56382,36
8.82413,4.56394,36
8.83246,4.56412,36
8.84079,4.56433,36
8.84913,4.56451,36
8.85746,4.56473,36
8.86579,4.5648,36
8.87413,4.56514,36
8.88246,4.56537,36
8.89079,4.56549,36
8.89913,4.5657,36
8.90746,4.56608,36
8.91579,4.56612,36
8.92413,4.56628,36
8.93246,4.56662,36
8.94079,4.56674,36
8.94913,4.56688,36
8.95746,4.56716,36
8.96579,4.56735,36
8.97413,4.56752,36
8.98246,4.568,36
8.99079,4.5682,36
8.99913,4.56833,36
9.00746,4.56845,36
9.01579,4.56871,37
9.02413,4.56867,37
9.03246,4.56894,37
9.04079,4.56907,37
9.04913,4.56937,37
9.05746,4.56945,37
9.06579,4.56963,37
9.07413,4.56977,37
9.08246,4.57,37
9.09079,4.5702,37
9.09913,4.57039,37
9.10746,4.57069,37
9.11579,4.57077,37
9.12413,4.57101,37
9.13246,4.57123,37
9.14079,4.57133,37
9.14913,4.57158,37
9.15746,4.57172,37
9.16579,4.5719,37
9.17413,4.57226,37
9.18246,4.57254,37
9.19079,4.5728,37
9.19913,4.57306,37
9.20746,4.57329,37
9.21579,4.57374,37
9.22413,4.57395,37
9.23246,4.57415,37
9.24079,4.57431,37
9.24913,4.57479,37
9.25746,4.57482,37
9.26579,4.57511,37
9.27413,4.57525,38
9.28246,4.5754,38
9.29079,4.57559,38
9.29913,4.57584,38
9.30746,4.57602,38
9.31579,4.57605,38
9.32413,4.57636,38
9.33246,4.57668,38
9.34079,4.5769,38
9.34913,4.57706,38
9.35746,4.57728,38
9.36579,4.57753,38
9.37413,4.57765,38
9.38246,4.57794,38
9.39079,4.57816,38
9.39913,4.57826,38
9.40746,4.5786,38
9.41579,4.57874,38
9.42413,4.57892,38
9.43246,4.57924,38
9.44079,4.57971,38
9.44913,4.57985,38
9.45746,4.58016,38
9.46579,4.58047,38
9.47413,4.58068,38
9.48246,4.58104,38
9.49079,4.58137,38
9.49913,4.58172,38
9.50746,4.58183,38
9.51579,4.58217,38
9.52413,4.58232,39
9.53246,4.58261,39
9.54079,4.58268,39
9.54913,4.58302,39
9.55746,4.58325,39
9.56579,4.58348,39
9.57413,4.58361,39
9.58246,4.58402,39
9.59079,4.58426,39
9.59913,4.58444,39
9.60746,4.5847,39
9.61579,4.5849,39
9.62413,4.58527,39
9.63246,4.58552,39
9.64079,4.58579,39
9.64913,4.58601,39
9.65746,4.58626,39
9.66579,4.58642,39
9.67413,4.58667,39
9.68246,4.587,39
9.69079,4.58725,39
9.69913,4.58764,39
9.70746,4.58793,39
9.71579,4.58822,39
9.72413,4.58875,39
9.73246,4.58903,39
9.74079,4.58938,39
9.74913,4.58989,39
9.75746,4.59004,39
9.76579,4.59024,39
9.77413,4.59058,39
9.78246,4.59092,40
9.79079,4.5911,40
9.79913,4.59145,40
9.80746,4.59177,40
9.81579,4.59207,40
9.82413,4.59238,40
9.83246,4.59263,40
9.84079,4.59295,40
9.84913,4.59329,40
9.85746,4.59344,40
9.86579,4.59389,40
9.87413,4.59426,40
9.88246,4.59444,40
9.89079,4.59467,40
9.89913,4.59502,40
9.90746,4.59529,40
9.91579,4.59563,40
9.92413,4.59601,40
9.93246,4.59636,40
9.94079,4.59668,40
9.94913,4.59698,40
9.95746,4.59732,40
9.96579,4.59774,40
9.97413,4.59816,40
9.98246,4.5985,40
9.99079,4.59897,40
9.99913,4.59944,40
10.00746,4.59975,40
10.01579,4.6002,40
10.02413,4.60042,40
10.03246,4.60076,40
10.04079,4.60117,41
10.04913,4.60161,41
10.05746,4.60183,41
10.06579,4.60231,41
10.07413,4.6025,41
10.08246,4.603,41
10.09079,4.60328,41
10.09913,4.60369,41
10.10746,4.60413,41
10.11579,4.60436,41
10.12413,4.60482,41
10.13246,4.60527,41
10.14079,4.60562,41
10.14913,4.60605,41
10.15746,4.60632,41
10.16579,4.6068,41
10.17413,4.6072,41
10.18246,4.60753,41
10.19079,4.60814,41
10.19913,4.60846,41
10.20746,4.60889,41
10.21579,4.60923,41
10.22413,4.60984,41
10.23246,4.61018,41
10.24079,4.61059,41
10.24913,4.61087,41
10.25746,4.61141,41
10.26579,4.61196,41
10.27413,4.61239,41
10.28246,4.61288,41
10.29079,4.6134,42
10.29913,4.61389,42
10.30746,4.61427,42
10.31579,4.615,42
10.32413,4.61551,42
10.33246,4.61602,42
10.34079,4.61641,42
10.34913,4.61701,42
10.35746,4.6175,42
10.36579,4.61796,42
10.37413,4.61865,42
10.38246,4.61915,42
10.39079,4.61967,42
10.39913,4.62014,42
10.40746,4.62075,42
10.41579,4.62126,42
10.42413,4.62186,42
10.43246,4.62237,42
10.44079,4.6227,42
10.44913,4.62347,42
10.45746,4.62408,42
10.46579,4.62464,42
10.47413,4.62519,42
10.48246,4.62563,42
10.49079,4.62635,42
10.49913,4.6269,42
10.50746,4.62737,42
10.51579,4.62805,42
10.52413,4.62872,42
10.53246,4.62936,42
10.54079,4.62993,42
10.54913,4.63072,43
10.55746,4.63125,43
10.56579,4.6321,43
10.57413,4.63286,43
10.58246,4.63354,43
10.59079,4.63413,43
10.59913,4.63488,43
10.60746,4.63558,43
10.61579,4.63632,43
10.62413,4.63707,43
10.63246,4.6378,43
10.64079,4.63846,43
10.64913,4.6393,43
10.65746,4.6399,43
10.66579,4.64069,43
10.67413,4.64148,43
10.68246,4.64217,43
10.69079,4.64293,43
10.69913,4.64383,43
10.70746,4.64453,43
10.71579,4.6453,43
10.72413,4.64616,43
10.73246,4.64694,43
10.74079,4.64781,43
10.74913,4.64865,43
10.75746,4.64961,43
10.76579,4.65047,43
10.77413,4.65136,43
10.78246,4.65238,43
10.79079,4.65322,43
10.79913,4.65416,43
10.80746,4.65516,44
10.81579,4.65597,44
10.82413,4.65698,44
10.83246,4.65807,44
10.84079,4.65894,44
10.84913,4.65987,44
10.85746,4.6609,44
10.86579,4.66177,44
10.87413,4.66287,44
10.88246,4.66393,44
10.89079,4.66495,44
10.89913,4.66583,44
10.90746,4.66682,44
10.91579,4.66786,44
10.92413,4.66897,44
10.93246,4.67001,44
10.94079,4.67112,44
10.94913,4.67219,44
10.95746,4.6733,44
10.96579,4.67446,44
10.97413,4.67553,44
10.98246,4.67686,44
10.99079,4.67791,44
10.99913,4.67907,44
11.00746,4.68037,44
11.01579,4.68156,44
11.02413,4.68285,44
11.03246,4.68406,44
11.04079,4.68551,44
11.04913,4.68679,44
11.05746,4.68809,45
11.06579,4.6895,45
11.07413,4.69084,45
11.08246,4.69225,45
11.09079,4.69365,45
11.09913,4.69512,45
11.10746,4.69642,45
11.11579,4.69802,45
11.12413,4.69933,45
11.12716,4.70006,45
11.12716,4.69999,45
11.12716,4.69272,45
11.12722,4.68269,45
11.12729,4.67265,45
11.12738,4.66258,45
11.12747,4.65257,45
11.12758,4.64256,45
11.12769,4.63253,45
11.12783,4.62246,45
11.12798,4.61245,45
11.12816,4.60244,45
11.12837,4.59243,45
11.12862,4.58242,45
11.12896,4.57237,45
11.1294,4.56234,45
11.13003,4.55233,45
11.13104,4.54231,45
11.13288,4.53227,45
11.13673,4.52225,45
11.14468,4.51218,45
11.15301,4.50572,45
11.16135,4.50047,46
11.16968,4.49573,46
11.17801,4.49156,46
11.18635,4.48766,46
11.19468,4.48397,46
11.20301,4.48057,46
11.21135,4.47719,46
11.21968,4.47385,46
11.22801,4.47071,46
11.23635,4.46774,46
11.24468,4.46473,46
11.25301,4.46184,46
11.26135,4.45907,46
11.26968,4.45636,46
11.27801,4.45366,46
11.28635,4.45098,46
11.29468,4.44846,46
11.30301,4.44582,46
11.31135,4.44334,46
11.31968,4.44068,46
11.32801,4.43828,46
11.33635,4.43574,46
11.34468,4.43347,46
11.35301,4.43102,46
11.36135,4.42874,46
11.36968,4.42642,46
11.37801,4.4241,46
11.38635,4.42186,46
11.39468,4.41956,46
11.40301,4.41747,46
11.41135,4.41523,47
11.41968,4.41301,47
11.42801,4.41088,47
11.43635,4.40879,47
11.44468,4.40666,47
11.45301,4.40465,47
11.46135,4.40252,47
11.46968,4.4005,47
11.47801,4.39853,47
11.48635,4.39637,47
11.49468,4.39451,47
11.50301,4.39249,47
11.51135,4.39063,47
11.51968,4.38869,47
11.52801,4.38658,47
11.53635,4.38464,47
11.54468,4.38286,47
11.55301,4.381,47
11.56135,4.37897,47
11.56968,4.37707,47
11.57801,4.37526,47
11.58635,4.37345,47
11.59468,4.37152,47
11.60301,4.36974,47
11.61135,4.36782,47
11.61968,4.36604,47
11.62801,4.36428,47
11.63635,4.36236,47
11.64468,4.36059,47
11.65301,4.35879,47
11.66135,4.35695,47
11.66968,4.35512,48
11.67801,4.35334,48
11.68635,4.35172,48
11.69468,4.34978,48
11.70301,4.34806,48
11.71135,4.34622,48
11.71968,4.34433,48
11.72801,4.3427,48
11.73635,4.34096,48
11.74468,4.33917,48
11.75301,4.33735,48
11.76135,4.33558,48
11.76968,4.33392,48
11.77801,4.33214,48
11.78635,4.33048,48
11.79468,4.32875,48
11.80301,4.32686,48
11.81135,4.32518,48
11.81968,4.32352,48
11.82801,4.32171,48
11.83635,4.32002,48
11.84468,4.31828,48
11.85301,4.31645,48
11.86135,4.31472,48
11.86968,4.31304,48
11.87801,4.31137,48
11.88635,4.30963,48
11.89468,4.30789,48
11.90301,4.30616,48
11.91135,4.30459,48
11.91968,4.30272,48
11.92801,4.30098,49
11.93635,4.29938,49
11.94468,4.2978,49
11.95301,4.296,49
11.96135,4.2942,49
11.96968,4.2925,49
11.97801,4.29068,49
11.98635,4.28904,49
11.99468,4.28731,49
12.00301,4.28542,49
12.01135,4.28373,49
12.01968,4.28201,49
12.02801,4.28031,49
12.03635,4.27869,49
12.04468,4.27684,49
12.05301,4.27514,49
12.06135,4.27353,49
12.06968,4.27176,49
12.07801,4.27001,49
12.08635,4.26838,49
12.09468,4.26663,49
12.10301,4.26493,49
12.11135,4.26331,49
12.11968,4.26156,49
12.12801,4.25984,49
12.13635,4.25823,49
12.14468,4.25652,49
12.15301,4.25481,49
12.16135,4.25319,49
12.16968,4.25144,49
12.17801,4.24985,50
12.18635,4.24809,50
12.19468,4.24639,50
12.20301,4.24463,50
12.21135,4.243,50
12.21968,4.24147,50
12.22801,4.23967,50
12.23635,4.23794,50
12.24468,4.23629,50
12.25301,4.23461,50
12.26135,4.23275,50
12.26968,4.23109,50
12.27801,4.22946,50
12.28635,4.22782,50
12.29468,4.22618,50
12.30301,4.22442,50
12.31135,4.22279,50
12.31968,4.22105,50
12.32801,4.21945,50
12.33635,4.2177,50
12.34468,4.21608,50
12.35301,4.21438,50
12.36135,4.21272,50
12.36968,4.21094,50
12.37801,4.20935,50
12.38635,4.2077,50
12.39468,4.20611,50
12.40301,4.20429,50
12.41135,4.20275,50
12.41968,4.20094,50
12.42801,4.19938,50
12.43635,4.19763,51
12.44468,4.19601,51
12.45301,4.19429,51
12.46135,4.1927,51
12.46968,4.19085,51
12.47801,4.18929,51
12.48635,4.1877,51
12.49468,4.18598,51
12.50301,4.18443,51
12.51135,4.18271,51
12.51968,4.18097,51
12.52801,4.17948,51
12.53635,4.17766,51
12.54468,4.17604,51
12.55301,4.17447,51
12.56135,4.17276,51
12.56968,4.17106,51
12.57801,4.16941,51
12.58635,4.16778,51
12.59468,4.16614,51
12.60301,4.16464,51
12.61135,4.16291,51
12.61968,4.1612,51
12.62801,4.15957,51
12.63635,4.1579,51
12.64468,4.1564,51
12.65301,4.15476,51
12.66135,4.15315,51
12.66968,4.15154,51
12.67801,4.14985,51
12.68635,4.14826,52
12.69468,4.14673,52
12.70301,4.14499,52
12.71135,4.14345,52
12.71968,4.14191,52
12.72801,4.14017,52
12.73635,4.13867,52
12.74468,4.13706,52
12.75301,4.13544,52
12.76135,4.13394,52
12.76968,4.13235,52
12.77801,4.1307,52
12.78635,4.12923,52
12.79468,4.12771,52
12.80301,4.12596,52
12.81135,4.12435,52
12.81968,4.12284,52
12.82801,4.12132,52
12.83635,4.11969,52
12.84468,4.11816,52
12.85301,4.11664,52
12.86135,4.11505,52
12.86968,4.11341,52
12.87801,4.11189,52
12.88635,4.11036,52
12.89468,4.10882,52
12.90301,4.10725,52
12.91135,4.10562,52
12.91968,4.10427,52
12.92801,4.10274,52
12.93635,4.10117,52
12.94468,4.09965,53
12.95301,4.09802,53
12.96135,4.09661,53
12.96968,4.09508,53
12.97801,4.09367,53
12.98635,4.09216,53
12.99468,4.09066,53
13.00301,4.08917,53
13.01135,4.08762,53
13.01968,4.08612,53
13.02801,4.08481,53
13.03635,4.08317,53
13.04468,4.08179,53
13.05301,4.08022,53
13.06135,4.07884,53
13.06968,4.07745,53
13.07801,4.07586,53
13.08635,4.07452,53
13.09468,4.07308,53
13.10301,4.07161,53
13.11135,4.07009,53
13.11968,4.06863,53
13.12801,4.06724,53
13.13635,4.06581,53
13.14468,4.06457,53
13.15301,4.06305,53
13.16135,4.06156,53
13.16968,4.06022,53
13.17801,4.05868,53
13.18635,4.05737,53
13.19468,4.05588,53
13.20301,4.05456,54
13.21135,4.05311,54
13.21968,4.0517,54
13.22801,4.0503,54
13.23635,4.04897,54
13.24468,4.0475,54
13.25301,4.04618,54
13.26135,4.04466,54
13.26968,4.04324,54
13.27801,4.04196,54
13.28635,4.04058,54
13.29468,4.03922,54
13.30301,4.03794,54
13.31135,4.03651,54
13.31968,4.03515,54
13.32801,4.03385,54
13.33635,4.0325,54
13.34468,4.03106,54
13.35301,4.02979,54
13.36135,4.02834,54
13.36968,4.02721,54
13.37801,4.02584,54
13.38635,4.02449,54
13.39468,4.02316,54
13.40301,4.02194,54
13.41135,4.02053,54
13.41968,4.01923,54
13.42801,4.018,54
13.43635,4.01657,54
13.44468,4.01543,54
13.45301,4.01416,55
13.46135,4.01286,55
13.46968,4.01141,55
13.47801,4.01033,55
13.48635,4.009,55
13.49468,4.00767,55
13.50301,4.0064,55
13.51135,4.00509,55
13.51968,4.00392,55
13.52801,4.0026,55
13.53635,4.00146,55
13.54468,4.00017,55
13.55301,3.99888,55
13.56135,3.99752,55
13.56968,3.99632,55
13.57801,3.99514,55
13.58635,3.99393,55
13.59468,3.99271,55
13.60301,3.99135,55
13.61135,3.99021,55
13.61968,3.98898,55
13.62801,3.98771,55
13.63635,3.9866,55
13.64468,3.98537,55
13.65301,3.9841,55
13.66135,3.98305,55
13.66968,3.98179,55
13.67801,3.9807,55
13.68635,3.9795,55
13.69468,3.97815,55
13.70301,3.97714,55
13.71135,3.97584,56
13.71968,3.97483,56
13.72801,3.97346,56
13.73635,3.97238,56
13.74468,3.97128,56
13.75301,3.97013,56
13.76135,3.96891,56
13.76968,3.96773,56
13.77801,3.96662,56
13.78635,3.96555,56
13.79468,3.96431,56
13.80301,3.96315,56
13.81135,3.96207,56
13.81968,3.96089,56
13.82801,3.95983,56
13.83635,3.9587,56
13.84468,3.95763,56
13.85301,3.95647,56
13.86135,3.95538,56
13.86968,3.95432,56
13.87801,3.95327,56
13.88635,3.95204,56
13.89468,3.95094,56
13.90301,3.94997,56
13.91135,3.94878,56
13.91968,3.94764,56
13.92801,3.94659,56
13.93635,3.9455,56
13.94468,3.94444,56
13.95301,3.94325,56
13.96135,3.9423,57
13.96968,3.94121,57
13.97801,3.94025,57
13.98635,3.93917,57
13.99468,3.93805,57
14.00301,3.93694,57
14.01135,3.93594,57
14.01968,3.93486,57
14.02801,3.93389,57
14.03635,3.93279,57
14.04468,3.93181,57
14.05301,3.93073,57
14.06135,3.92976,57
14.06968,3.92863,57
14.07801,3.92765,57
14.08635,3.92662,57
14.09468,3.92569,57
14.10301,3.92462,57
14.11135,3.92351,57
14.11968,3.92247,57
14.12801,3.92161,57
14.13635,3.9207,57
14.14468,3.9196,57
14.15301,3.91866,57
14.16135,3.91753,57
14.16968,3.91654,57
14.17801,3.91561,57
14.18635,3.91465,57
14.19468,3.91368,57
14.20301,3.9127,57
14.21135,3.91168,57
14.21968,3.91067,58
14.22801,3.90965,58
14.23635,3.90866,58
14.24468,3.90781,58
14.25301,3.90675,58
14.26135,3.90583,58
14.26968,3.90482,58
14.27801,3.90381,58
14.28635,3.90287,58
14.29468,3.90202,58
14.30301,3.90098,58
14.31135,3.90001,58
14.31968,3.89911,58
14.32801,3.89823,58
14.33635,3.89723,58
14.34468,3.89632,58
14.35301,3.89537,58
14.36135,3.8944,58
14.36968,3.89347,58
14.37801,3.89258,58
14.38635,3.89174,58
14.39468,3.89071,58
14.40301,3.88976,58
14.41135,3.88895,58
14.41968,3.88806,58
14.42801,3.88698,58
14.43635,3.88614,58
14.44468,3.8852,58
14.45301,3.8843,58
14.46135,3.8834,58
14.46968,3.8825,58
14.47801,3.8815,59
14.48635,3.88059,59
14.49468,3.87978,59
14.50301,3.87883,59
14.51135,3.87796,59
14.51968,3.87706,59
14.52801,3.87606,59
14.53635,3.87513,59
14.54468,3.8742,59
14.55301,3.87358,59
14.56135,3.87251,59
14.56968,3.87162,59
14.57801,3.8707,59
14.58635,3.86974,59
14.59468,3.86901,59
14.60301,3.86807,59
14.61135,3.86723,59
14.61968,3.86641,59
14.62801,3.86536,59
14.63635,3.86466,59
14.64468,3.86371,59
14.65301,3.86282,59
14.66135,3.86196,59
14.66968,3.86111,59
14.67801,3.86021,59
14.68635,3.85939,59
14.69468,3.85841,59
14.70301,3.85755,59
14.71135,3.85675,59
14.71968,3.85597,59
14.72801,3.85505,60
14.73635,3.85424,60
14.74468,3.85341,60
14.75301,3.8525,60
14.76135,3.8516,60
14.76968,3.85073,60
14.77801,3.8499,60
14.78635,3.84903,60
14.79468,3.84824,60
14.80301,3.84747,60
14.81135,3.84666,60
14.81968,3.84582,60
14.82801,3.8448,60
14.83635,3.84408,60
14.84468,3.84331,60
14.85301,3.84227,60
14.86135,3.84154,60
14.86968,3.84057,60
14.87801,3.83987,60
14.88635,3.83896,60
14.89468,3.83809,60
14.90301,3.83713,60
14.91135,3.83646,60
14.91968,3.83563,60
14.92801,3.83485,60
14.93635,3.83386,60
14.94468,3.83305,60
14.95301,3.83235,60
14.96135,3.83144,60
14.96968,3.8305,60
14.97801,3.82981,60
14.98635,3.82897,61
14.99468,3.82816,61
15.00301,3.8273,61
15.01135,3.82647,61
15.01968,3.82565,61
15.02801,3.82493,61
15.03635,3.82401,61
15.04468,3.8233,61
15.05301,3.82237,61
15.06135,3.82159,61
15.06968,3.82083,61
15.07801,3.8199,61
15.08635,3.81909,61
15.09468,3.8184,61
15.10301,3.81752,61
15.11135,3.81676,61
15.11968,3.81602,61
15.12801,3.81517,61
15.13635,3.81441,61
15.14468,3.81354,61
15.15301,3.81272,61
15.16135,3.81192,61
15.16968,3.81111,61
15.17801,3.81042,61
15.18635,3.80953,61
15.19468,3.80873,61
15.20301,3.80797,61
15.21135,3.80716,61
15.21968,3.80644,61
15.22801,3.80563,61
15.23635,3.80486,61
15.24468,3.80393,62
15.25301,3.8032,62
15.26135,3.80249,62
15.26968,3.80163,62
15.27801,3.80092,62
15.28635,3.8001,62
15.29468,3.79933,62
15.30301,3.79853,62
15.31135,3.79781,62
15.31968,3.7971,62
15.32801,3.79631,62
15.33635,3.79552,62
15.34468,3.79475,62
15.35301,3.79406,62
15.36135,3.79317,62
15.36968,3.79234,62
15.37801,3.79163,62
15.38635,3.79101,62
15.39468,3.79021,62
15.40301,3.78952,62
15.41135,3.78874,62
15.41968,3.78803,62
15.42801,3.7873,62
15.43635,3.7865,62
15.44468,3.78577,62
15.45301,3.78501,62
15.46135,3.78424,62
15.46968,3.78361,62
15.47801,3.78284,62
15.48635,3.78208,62
15.49468,3.78136,63
15.50301,3.78068,63
15.51135,3.77984,63
15.51968,3.77926,63
15.52801,3.7785,63
15.53635,3.77777,63
15.54468,3.77701,63
15.55301,3.77625,63
15.56135,3.77568,63
15.56968,3.77493,63
15.57801,3.77409,63
15.58635,3.77343,63
15.59468,3.77265,63
15.60301,3.77197,63
15.61135,3.77131,63
15.61968,3.77063,63
15.62801,3.76978,63
15.63635,3.76907,63
15.64468,3.76843,63
15.65301,3.76777,63
15.66135,3.767,63
15.66968,3.7664,63
15.67801,3.76574,63
15.68635,3.76492,63
15.69468,3.76435,63
15.70301,3.76367,63
15.71135,3.76287,63
15.71968,3.76218,63
15.72801,3.76148,63
15.73635,3.7608,63
15.74468,3.76022,63
15.75301,3.75956,64
15.76135,3.75884,64
15.76968,3.75813,64
15.77801,3.75764,64
15.78635,3.75684,64
15.79468,3.75633,64
15.80301,3.75568,64
15.81135,3.75491,64
15.81968,3.75416,64
15.82801,3.75358,64
15.83635,3.75296,64
15.84468,3.75237,64
15.85301,3.75156,64
15.86135,3.75102,64
15.86968,3.75036,64
15.87801,3.74975,64
15.88635,3.74911,64
15.89468,3.74852,64
15.90301,3.74768,64
15.91135,3.74713,64
15.91968,3.74645,64
15.92801,3.7458,64
15.93635,3.74516,64
15.94468,3.74459,64
15.95301,3.74382,64
15.96135,3.74317,64
15.96968,3.74248,64
15.97801,3.74194,64
15.98635,3.74132,64
15.99468,3.74066,64
16.00301,3.74007,65
16.01135,3.73944,65
16.01968,3.73881,65
16.02801,3.73816,65
16.03635,3.73764,65
16.04468,3.73688,65
16.05301,3.7362,65
16.06135,3.73567,65
16.06968,3.73497,65
16.07801,3.73449,65
16.08635,3.73375,65
16.09468,3.73315,65
16.10301,3.73262,65
16.11135,3.73197,65
16.11968,3.73137,65
16.12801,3.73077,65
16.13635,3.73002,65
16.14468,3.72932,65
16.15301,3.72876,65
16.16135,3.7282,65
16.16968,3.72747,65
16.17801,3.72687,65
16.18635,3.72627,65
16.19468,3.72562,65
16.20301,3.72499,65
16.21135,3.72442,65
16.21968,3.72382,65
16.22801,3.72309,65
16.23635,3.72256,65
16.24468,3.7218,65
16.25301,3.72118,65
16.26135,3.72061,66
16.26968,3.71998,66
16.27801,3.71938,66
16.28635,3.71876,66
16.29468,3.71802,66
16.30301,3.71741,66
16.31135,3.71679,66
16.31968,3.71603,66
16.32801,3.71546,66
16.33635,3.7148,66
16.34468,3.71412,66
16.35301,3.71354,66
16.36135,3.7128,66
16.36968,3.71216,66
16.37801,3.71158,66
16.38635,3.71082,66
16.39468,3.71023,66
16.40301,3.70957,66
16.41135,3.70894,66
16.41968,3.70824,66
16.42801,3.70761,66
16.43635,3.70685,66
16.44468,3.70627,66
16.45301,3.70549,66
16.46135,3.70504,66
16.46968,3.70414,66
16.47801,3.70346,66
16.48635,3.70294,66
16.49468,3.70211,66
16.50301,3.70144,66
16.51135,3.70086,66
16.51968,3.70012,67
16.52801,3.69944,67
16.53635,3.69876,67
16.54468,3.69807,67
16.55301,3.69738,67
16.56135,3.69658,67
16.56968,3.69599,67
16.57801,3.69518,67
16.58635,3.69446,67
16.59468,3.69373,67
16.60301,3.69294,67
16.61135,3.69226,67
16.61968,3.69152,67
16.62801,3.69062,67
16.63635,3.69015,67
16.64468,3.68936,67
16.65301,3.68855,67
16.66135,3.68788,67
16.66968,3.68726,67
16.67801,3.68634,67
16.68635,3.6855,67
16.69468,3.68481,67
16.70301,3.684,67
16.71135,3.68327,67
16.71968,3.6825,67
16.72801,3.68185,67
16.73635,3.68097,67
16.74468,3.68027,67
16.75301,3.67939,67
16.76135,3.67873,67
16.76968,3.67789,68
16.77801,3.67712,68
16.78635,3.67627,68
16.79468,3.6754,68
16.80301,3.67453,68
16.81135,3.67377,68
16.81968,3.673,68
16.82801,3.67216,68
16.83635,3.6714,68
16.84468,3.67051,68
16.85301,3.66966,68
16.86135,3.6688,68
16.86968,3.66783,68
16.87801,3.66716,68
16.88635,3.66629,68
16.89468,3.66541,68
16.90301,3.66451,68
16.91135,3.66375,68
16.91968,3.66288,68
16.92801,3.66186,68
16.93635,3.66107,68
16.94468,3.66039,68
16.95301,3.65934,68
16.96135,3.65843,68
16.96968,3.65765,68
16.97801,3.65659,68
16.98635,3.65582,68
16.99468,3.65494,68
17.00301,3.65391,68
17.01135,3.65311,68
17.01968,3.65216,68
17.02801,3.65117,69
17.03635,3.65026,69
17.04468,3.64955,69
17.05301,3.64853,69
17.06135,3.64757,69
17.06968,3.64657,69
17.07801,3.64561,69
17.08635,3.64476,69
17.09468,3.64369,69
17.10301,3.6428,69
17.11135,3.64185,69
17.11968,3.64093,69
17.12801,3.6399,69
17.13635,3.63884,69
17.14468,3.63795,69
17.15301,3.63681,69
17.16135,3.63588,69
17.16968,3.63478,69
17.17801,3.6338,69
17.18635,3.63299,69
17.19468,3.63184,69
17.20301,3.63091,69
17.21135,3.62968,69
17.21968,3.6288,69
17.22801,3.62784,69
17.23635,3.62672,69
17.24468,3.62574,69
17.25301,3.62465,69
17.26135,3.62375,69
17.26968,3.62254,69
17.27801,3.62141,70
17.28635,3.62043,70
17.29468,3.61928,70
17.30301,3.61823,70
17.31135,3.61721,70
17.31968,3.61602,70
17.32801,3.61499,70
17.33635,3.6138,70
17.34468,3.61276,70
17.35301,3.61171,70
17.36135,3.61048,70
17.36968,3.60946,70
17.37801,3.60827,70
17.38635,3.60722,70
17.39468,3.60606,70
17.40301,3.60484,70
17.41135,3.6038,70
17.41968,3.60267,70
17.42801,3.60155,70
17.43635,3.60035,70
17.44468,3.59918,70
17.45301,3.59793,70
17.46135,3.59687,70
17.46968,3.5957,70
17.47801,3.59453,70
17.48635,3.59321,70
17.49468,3.59213,70
17.50301,3.59092,70
17.51135,3.58973,70
17.51968,3.58853,70
17.52801,3.58725,70
17.53635,3.58612,71
17.54468,3.58487,71
17.55301,3.58362,71
17.56135,3.58249,71
17.56968,3.58128,71
17.57801,3.58011,71
17.58635,3.57879,71
17.59468,3.57754,71
17.60301,3.57636,71
17.61135,3.57505,71
17.61968,3.57379,71
17.62801,3.57249,71
17.63635,3.57138,71
17.64468,3.57012,71
17.65301,3.56862,71
17.66135,3.56736,71
17.66968,3.56628,71
17.67801,3.56502,71
17.68635,3.56374,71
17.69468,3.56252,71
17.70301,3.56112,71
17.71135,3.55984,71
17.71968,3.55861,71
17.72801,3.5572,71
17.73635,3.55586,71
17.74468,3.5547,71
17.75301,3.55339,71
17.76135,3.55202,71
17.76968,3.55076,71
17.77801,3.5495,71
17.78635,3.548,71
17.79468,3.54681,72
17.80301,3.54541,72
17.81135,3.54417,72
17.81968,3.54294,72
17.82801,3.54151,72
17.83635,3.54017,72
17.84468,3.53878,72
17.85301,3.53757,72
17.86135,3.5362,72
17.86968,3.53474,72
17.87801,3.53349,72
17.88635,3.53212,72
17.89468,3.53075,72
17.90301,3.52936,72
17.91135,3.52796,72
17.91968,3.52667,72
17.92801,3.52526,72
17.93635,3.52392,72
17.94468,3.52251,72
17.95301,3.52119,72
17.96135,3.51982,72
17.96968,3.51838,72
17.97801,3.51706,72
17.98635,3.51576,72
17.99468,3.5145,72
18.00301,3.51298,72
18.01135,3.51158,72
18.01968,3.51013,72
18.02801,3.50888,72
18.03635,3.50741,72
18.04468,3.506,73
18.05301,3.50467,73
18.06135,3.50327,73
18.06968,3.50188,73
18.07801,3.50051,73
18.08635,3.49907,73
18.09468,3.49768,73
18.10301,3.49621,73
18.11135,3.49484,73
18.11968,3.49339,73
18.12801,3.49203,73
18.13635,3.49063,73
18.14468,3.4892,73
18.15301,3.48779,73
18.16135,3.48636,73
18.16968,3.48499,73
18.17801,3.4836,73
18.18635,3.48219,73
18.19468,3.48071,73
18.20301,3.47928,73
18.21135,3.47792,73
18.21968,3.47632,73
18.22801,3.47501,73
18.23635,3.47359,73
18.24468,3.47217,73
18.25301,3.47051,73
18.26135,3.46913,73
18.26968,3.46779,73
18.27801,3.4664,73
18.28635,3.46499,73
18.29468,3.46353,73
18.30301,3.46197,74
18.31135,3.46049,74
18.31968,3.45913,74
18.32801,3.45775,74
18.33635,3.45615,74
18.34468,3.45482,74
18.35301,3.45326,74
18.36135,3.4518,74
18.36968,3.45045,74
18.37801,3.44894,74
18.38635,3.44755,74
18.39468,3.44595,74
18.40301,3.44452,74
18.41135,3.44301,74
18.41968,3.4415,74
18.42801,3.44,74
18.43635,3.43858,74
18.44468,3.437,74
18.45301,3.43542,74
18.46135,3.43405,74
18.46968,3.43241,74
18.47801,3.43087,74
18.48635,3.42943,74
18.49468,3.42782,74
18.50301,3.4263,74
18.51135,3.42469,74
18.51968,3.42312,74
18.52801,3.4216,74
18.53635,3.42005,74
18.54468,3.4186,74
18.55302,3.41701,74
18.56135,3.41548,75
18.56968,3.41401,75
18.57802,3.41224,75
18.58635,3.41075,75
18.59468,3.40911,75
18.60302,3.40746,75
18.61135,3.40603,75
18.61968,3.40443,75
18.62802,3.4028,75
18.63635,3.40132,75
18.64468,3.39971,75
18.65302,3.39803,75
18.66135,3.39638,75
18.66968,3.39463,75
18.67802,3.39307,75
18.68635,3.39164,75
18.69468,3.38983,75
18.70302,3.38822,75
18.71135,3.38658,75
18.71968,3.3848,75
18.72802,3.38315,75
18.73635,3.38144,75
18.74468,3.37973,75
18.75302,3.37811,75
18.76135,3.37641,75
18.76968,3.37476,75
18.77802,3.37318,75
18.78635,3.37137,75
18.79468,3.36973,75
18.80302,3.36808,75
18.81135,3.36625,76
18.81968,3.3646,76
18.82802,3.36295,76
18.83635,3.36114,76
18.84468,3.35951,76
18.85302,3.35769,76
18.86135,3.35597,76
18.86968,3.35431,76
18.87802,3.35238,76
18.88635,3.35072,76
18.89468,3.34895,76
18.90302,3.34727,76
18.91135,3.34543,76
18.91968,3.34357,76
18.92802,3.34173,76
18.93635,3.33991,76
18.94468,3.33818,76
18.95302,3.33632,76
18.96135,3.33437,76
18.96968,3.33257,76
18.97802,3.33056,76
18.98635,3.32859,76
18.99468,3.32688,76
19.00302,3.32499,76
19.01135,3.3231,76
19.01968,3.32143,76
19.02802,3.31946,76
19.03635,3.31756,76
19.04468,3.31577,76
19.05302,3.31388,76
19.06135,3.31186,76
19.06969,3.30993,77
19.07802,3.3079,77
19.08635,3.30597,77
19.09469,3.30403,77
19.10302,3.30187,77
19.11135,3.29995,77
19.11969,3.29803,77
19.12802,3.29596,77
19.13635,3.29396,77
19.14469,3.29198,77
19.15302,3.28988,77
19.16135,3.28799,77
19.16969,3.28592,77
19.17802,3.28386,77
19.18635,3.28198,77
19.19469,3.27976,77
19.20302,3.278,77
19.21135,3.27591,77
19.21969,3.27368,77
19.22802,3.2716,77
19.23635,3.26944,77
19.24469,3.2672,77
19.25302,3.26507,77
19.26135,3.26299,77
19.26969,3.26079,77
19.27802,3.25876,77
19.28635,3.25654,77
19.29469,3.25454,77
19.30302,3.25232,77
19.31135,3.25017,77
19.31969,3.2481,78
19.32802,3.24603,78
19.33635,3.2438,78
19.34469,3.2416,78
19.35302,3.2394,78
19.36135,3.23742,78
19.36969,3.23524,78
19.37802,3.23296,78
19.38635,3.23079,78
19.39469,3.22865,78
19.40302,3.22636,78
19.41135,3.22404,78
19.41969,3.22185,78
19.42802,3.21945,78
19.43635,3.2172,78
19.44469,3.21481,78
19.45302,3.21241,78
19.46135,3.21002,78
19.46969,3.20778,78
19.47802,3.20546,78
19.48635,3.20308,78
19.49469,3.20081,78
19.50302,3.19867,78
19.51135,3.19639,78
19.51969,3.19422,78
19.52802,3.19213,78
19.53635,3.18991,78
19.54469,3.18771,78
19.55302,3.18559,78
19.56135,3.18318,78
19.56969,3.18112,78
19.57802,3.17894,79
19.58636,3.17661,79
19.59469,3.17422,79
19.60302,3.17184,79
19.61136,3.16945,79
19.61969,3.16706,79
19.62802,3.16467,79
19.63636,3.16238,79
19.64469,3.15997,79
19.65302,3.15762,79
19.66136,3.15538,79
19.66969,3.15307,79
19.67802,3.1508,79
19.68636,3.14848,79
19.69469,3.14624,79
19.70302,3.14398,79
19.71136,3.14153,79
19.71969,3.13934,79
19.72802,3.13694,79
19.73636,3.13454,79
19.74469,3.13226,79
19.75302,3.12989,79
19.76136,3.12795,79
19.76969,3.12558,79
19.77802,3.12324,79
19.78636,3.12085,79
19.79469,3.11856,79
19.80302,3.11619,79
19.81136,3.11384,79
19.81969,3.11148,79
19.82802,3.109,79
19.83636,3.1067,80
19.84469,3.1044,80
19.85302,3.10219,80
19.86136,3.09959,80
19.86969,3.09726,80
19.87802,3.095,80
19.88636,3.09249,80
19.89469,3.09007,80
19.90302,3.0876,80
19.91136,3.0851,80
19.91969,3.08278,80
19.92802,3.08018,80
19.93636,3.07764,80
19.94469,3.07515,80
19.95302,3.07253,80
19.96136,3.06996,80
19.96969,3.06726,80
19.97802,3.06464,80
19.98636,3.06186,80
19.99469,3.05903,80
20.00302,3.05651,80
20.01136,3.05377,80
20.01969,3.05132,80
20.02802,3.04866,80
20.03636,3.04581,80
20.04469,3.0431,80
20.05302,3.04046,80
20.06136,3.03766,80
20.06969,3.03472,80
20.07802,3.03177,80
20.08636,3.02892,81
20.09469,3.02581,81
20.10302,3.02281,81
20.11136,3.01959,81
20.11969,3.01653,81
20.12803,3.01317,81
20.13636,3.00993,81
20.14469,3.00665,81
20.15303,3.00323,81
20.16104,3.00006,81
20.16104,3.00004,81
20.16104,3.00529,81
20.16105,3.0153,81
20.16106,3.02531,81
20.16108,3.03546,81
20.1611,3.04547,81
20.16112,3.0555,81
20.16115,3.06553,81
20.16118,3.0756,81
20.16121,3.08563,81
20.16125,3.09569,81
20.16129,3.10576,81
20.16135,3.11579,81
20.16141,3.12583,81
20.16148,3.13585,81
20.16157,3.14589,81
20.16168,3.15592,81
20.16182,3.16595,81
20.16198,3.17595,81
20.16218,3.18596,81
20.16242,3.19597,81
20.1627,3.20598,82
20.16303,3.21598,82
20.16341,3.22599,82
20.16385,3.23603,82
20.16436,3.24606,82
20.16493,3.25609,82
20.16557,3.2661,82
20.16629,3.27612,82
20.1671,3.28614,82
20.16802,3.29614,82
20.16905,3.30614,82
20.1702,3.31616,82
20.1715,3.32618,82
20.17297,3.33619,82
20.17464,3.3462,82
20.17655,3.35621,82
20.17872,3.36622,82
20.18124,3.37622,82
20.18415,3.38622,82
20.18757,3.39627,82
20.19163,3.40628,82
20.1965,3.41629,82
20.20237,3.4263,82
20.20964,3.43631,82
20.21798,3.44541,82
20.22631,3.4529,82
20.23464,3.45931,82
20.24298,3.46467,82
20.25131,3.46945,82
20.25964,3.47334,82
20.26798,3.47693,83
20.27631,3.48029,83
20.28464,3.48305,83
20.29298,3.48582,83
20.30131,3.4882,83
20.30964,3.49045,83
20.31798,3.49253,83
20.32631,3.49452,83
20.33464,3.49639,83
20.34298,3.49811,83
20.35131,3.49987,83
20.35964,3.50144,83
20.36798,3.50305,83
20.37631,3.50462,83
20.38464,3.50601,83
20.39298,3.50745,83
20.40131,3.50913,83
20.40964,3.51061,83
20.41798,3.512,83
20.42631,3.51349,83
20.43464,3.51485,83
20.44298,3.51615,83
20.45131,3.51753,83
20.45964,3.51891,83
20.46798,3.52035,83
20.47631,3.52164,83
20.48464,3.52306,83
20.49298,3.52435,83
20.50131,3.52569,83
20.50964,3.527,83
20.51798,3.5284,83
20.52631,3.52958,84
20.53464,3.53103,84
20.54298,3.53221,84
20.55131,3.53363,84
20.55964,3.53499,84
20.56798,3.53644,84
20.57631,3.53776,84
20.58464,3.53928,84
20.59298,3.54065,84
20.60131,3.54202,84
20.60964,3.54346,84
20.61798,3.54485,84
20.62631,3.54635,84
20.63464,3.54777,84
20.64298,3.54936,84
20.65131,3.55074,84
20.65964,3.55219,84
20.66798,3.55371,84
20.67631,3.55521,84
20.68465,3.55667,84
20.69298,3.55831,84
20.70131,3.55989,84
20.70965,3.56154,84
20.71798,3.5629,84
20.72631,3.56456,84
20.73465,3.56619,84
20.74298,3.56764,84
20.75131,3.56933,84
20.75965,3.57079,84
20.76798,3.57237,84
20.77631,3.57387,84
20.78465,3.57549,85
20.79298,3.57702,85
20.80131,3.57863,85
20.80965,3.58034,85
20.81798,3.58202,85
20.82631,3.58348,85
20.83465,3.58512,85
20.84298,3.5866,85
20.85131,3.5885,85
20.85965,3.58998,85
20.86798,3.59156,85
20.87631,3.5932,85
20.88465,3.59487,85
20.89298,3.59654,85
20.90131,3.5982,85
20.90965,3.5997,85
20.91798,3.60151,85
20.92631,3.60302,85
20.93465,3.60464,85
20.94298,3.60621,85
20.95131,3.60788,85
20.95965,3.60965,85
20.96798,3.61121,85
20.97631,3.61276,85
20.98465,3.61447,85
20.99298,3.61619,85
21.00131,3.61776,85
21.00965,3.61946,85
21.01798,3.62101,85
21.02631,3.62261,85
21.03465,3.62418,86
21.04298,3.62565,86
21.05131,3.62732,86
21.05965,3.62895,86
21.06798,3.63061,86
21.07631,3.6321,86
21.08465,3.6336,86
21.09298,3.63515,86
21.10131,3.63687,86
21.10965,3.6384,86
21.11798,3.64002,86
21.12631,3.64149,86
21.13465,3.64314,86
21.14298,3.64461,86
21.15131,3.64613,86
21.15965,3.64759,86
21.16798,3.64914,86
21.17631,3.65047,86
21.18465,3.65216,86
21.19298,3.65355,86
21.20132,3.65497,86
21.20965,3.65648,86
21.21798,3.65784,86
21.22632,3.65912,86
21.23465,3.6607,86
21.24298,3.66209,86
21.25132,3.66352,86
21.25965,3.66491,86
21.26798,3.66627,86
21.27632,3.66759,86
21.28465,3.66896,86
21.29298,3.67042,87
21.30132,3.67173,87
21.30965,3.67297,87
21.31798,3.67429,87
21.32632,3.67547,87
21.33465,3.67683,87
21.34298,3.67819,87
21.35132,3.67957,87
21.35965,3.68069,87
21.36798,3.68199,87
21.37632,3.68328,87
21.38465,3.68442,87
21.39298,3.68566,87
21.40132,3.68668,87
21.40965,3.68806,87
21.41798,3.68921,87
21.42632,3.69024,87
21.43465,3.69157,87
21.44298,3.69271,87
21.45132,3.69364,87
21.45965,3.69478,87
21.46798,3.69597,87
21.47632,3.69708,87
21.48465,3.69803,87
21.49298,3.69923,87
21.50132,3.70031,87
21.50965,3.70129,87
21.51798,3.70236,87
21.52632,3.70328,87
21.53465,3.70448,87
21.54298,3.70553,87
21.55132,3.70637,88
21.55965,3.70742,88
21.56798,3.70831,88
21.57632,3.70934,88
21.58465,3.71035,88
21.59298,3.71133,88
21.60132,3.71232,88
21.60965,3.71329,88
21.61798,3.7141,88
21.62632,3.71519,88
21.63465,3.71593,88
21.64298,3.71686,88
21.65132,3.71775,88
21.65965,3.71874,88
21.66798,3.71959,88
21.67632,3.72044,88
21.68465,3.7214,88
21.69298,3.72219,88
21.70132,3.72303,88
21.70965,3.72387,88
21.71799,3.72475,88
21.72632,3.72551,88
21.73465,3.72642,88
21.74299,3.72721,88
21.75132,3.72799,88
21.75965,3.72896,88
21.76799,3.72962,88
21.77632,3.7304,88
21.78465,3.73121,88
21.79299,3.73193,88
21.80132,3.73281,89
21.80965,3.73357,89
21.81799,3.73425,89
21.82632,3.7351,89
21.83465,3.73589,89
21.84299,3.7366,89
21.85132,3.73736,89
21.85965,3.73806,89
21.86799,3.73882,89
21.87632,3.73953,89
21.88465,3.74032,89
21.89299,3.74106,89
21.90132,3.74172,89
21.90965,3.74244,89
21.91799,3.74312,89
21.92632,3.7439,89
21.93465,3.74468,89
21.94299,3.74526,89
21.95132,3.74608,89
21.95965,3.74673,89
21.96799,3.74744,89
21.97632,3.74812,89
21.98465,3.74879,89
21.99299,3.74953,89
22.00132,3.75022,89
22.00965,3.75089,89
22.01799,3.75155,89
22.02632,3.7522,89
22.03465,3.75282,89
22.04299,3.7535,89
22.05132,3.75407,89
22.05965,3.75486,90
22.06799,3.75539,90
22.07632,3.75613,90
22.08465,3.75665,90
22.09299,3.75734,90
22.10132,3.75799,90
22.10965,3.75872,90
22.11799,3.75939,90
22.12632,3.75993,90
22.13465,3.76062,90
22.14299,3.76123,90
22.15132,3.76189,90
22.15965,3.76251,90
22.16799,3.76303,90
22.17632,3.76383,90
22.18465,3.76446,90
22.19299,3.76503,90
22.20132,3.76575,90
22.20965,3.7663,90
22.21799,3.76693,90
22.22632,3.76753,90
22.23465,3.76814,90
22.24299,3.76883,90
22.25132,3.76935,90
22.25966,3.77004,90
22.26799,3.77055,90
22.27632,3.77123,90
22.28466,3.77172,90
22.29299,3.77249,90
22.30132,3.77311,90
22.30966,3.77374,91
22.31799,3.7744,91
22.32632,3.77505,91
22.33466,3.77558,91
22.34299,3.77622,91
22.35132,3.77684,91
22.35966,3.77748,91
22.36799,3.77817,91
22.37632,3.77871,91
22.38466,3.77937,91
22.39299,3.77994,91
22.40132,3.78057,91
22.40966,3.78127,91
22.41799,3.78182,91
22.42632,3.78249,91
22.43466,3.78316,91
22.44299,3.78375,91
22.45132,3.78442,91
22.45966,3.78492,91
22.46799,3.78556,91
22.47632,3.78619,91
22.48466,3.78696,91
22.49299,3.78757,91
22.50132,3.78816,91
22.50966,3.78878,91
22.51799,3.78947,91
22.52632,3.79007,91
22.53466,3.79061,91
22.54299,3.79137,91
22.55132,3.79198,91
22.55966,3.79258,91
22.56799,3.79321,92
22.57632,3.79383,92
22.58466,3.79448,92
22.59299,3.79515,92
22.60132,3.79572,92
22.60966,3.79641,92
22.61799,3.79695,92
22.62632,3.7977,92
22.63466,3.79827,92
22.64299,3.79903,92
22.65132,3.79972,92
22.65966,3.80043,92
22.66799,3.80096,92
22.67632,3.80163,92
22.68466,3.80228,92
22.69299,3.80292,92
22.70132,3.80364,92
22.70966,3.8043,92
22.71799,3.80499,92
22.72632,3.80573,92
22.73466,3.80631,92
22.74299,3.80692,92
22.75132,3.80766,92
22.75966,3.80831,92
22.76799,3.80901,92
22.77633,3.80976,92
22.78466,3.81032,92
22.79299,3.81102,92
22.80133,3.81179,92
22.80966,3.81231,92
22.81799,3.81304,92
22.82633,3.81384,93
22.83466,3.81445,93
22.84299,3.81515,93
22.85133,3.81588,93
22.85966,3.81667,93
22.86799,3.81723,93
22.87633,3.81794,93
22.88466,3.81873,93
22.89299,3.81942,93
22.90133,3.82012,93
22.90966,3.82083,93
22.91799,3.82155,93
22.92633,3.82238,93
22.93466,3.82301,93
22.94299,3.8235,93
22.95133,3.82432,93
22.95966,3.82509,93
22.96799,3.8258,93
22.97633,3.82641,93
22.98466,3.82717,93
22.99299,3.8279,93
23.00133,3.82858,93
23.00966,3.82935,93
23.01799,3.83006,93
23.02633,3.83082,93
23.03466,3.8315,93
23.04299,3.83228,93
23.05133,3.83293,93
23.05966,3.83385,93
23.06799,3.83444,93
23.07633,3.83511,94
23.08466,3.83601,94
23.09299,3.83657,94
23.10133,3.83752,94
23.10966,3.83816,94
23.11799,3.83899,94
23.12633,3.83957,94
23.13466,3.84053,94
23.14299,3.84119,94
23.15133,3.8418,94
23.15966,3.84257,94
23.16799,3.84346,94
23.17633,3.84422,94
23.18466,3.84493,94
23.19299,3.84572,94
23.20133,3.84652,94
23.20966,3.84727,94
23.21799,3.84803,94
23.22633,3.84877,94
23.23466,3.84956,94
23.24299,3.85037,94
23.25133,3.85117,94
23.25966,3.85198,94
23.26799,3.85268,94
23.27633,3.85343,94
23.28466,3.85419,94
23.293,3.85494,94
23.30133,3.85563,94
23.30966,3.85642,94
23.318,3.85721,94
23.32633,3.85801,94
23.33466,3.85869,95
23.343,3.85954,95
23.35133,3.8603,95
23.35966,3.86116,95
23.368,3.86182,95
23.37633,3.86264,95
23.38466,3.86352,95
23.393,3.86429,95
23.40133,3.86501,95
23.40966,3.86591,95
23.418,3.86657,95
23.42633,3.8674,95
23.43466,3.86811,95
23.443,3.8689,95
23.45133,3.8698,95
23.45966,3.87056,95
23.468,3.87134,95
23.47633,3.87213,95
23.48466,3.87291,95
23.493,3.8737,95
23.50133,3.87451,95
23.50966,3.87529,95
23.518,3.87609,95
23.52633,3.87686,95
23.53466,3.87755,95
23.543,3.87842,95
23.55133,3.87927,95
23.55966,3.88003,95
23.568,3.88092,95
23.57633,3.88158,95
23.58466,3.88253,96
23.593,3.88327,96
23.60133,3.88393,96
23.60966,3.88476,96
23.618,3.88563,96
23.62633,3.88644,96
23.63466,3.88724,96
23.643,3.88797,96
23.65133,3.88882,96
23.65966,3.88949,96
23.668,3.89037,96
23.67633,3.89117,96
23.68466,3.892,96
23.693,3.89281,96
23.70133,3.89352,96
23.70966,3.89423,96
23.718,3.89516,96
23.72633,3.89587,96
23.73466,3.89677,96
23.743,3.89759,96
23.75133,3.89845,96
23.75966,3.89907,96
23.768,3.89999,96
23.77633,3.90076,96
23.78466,3.90152,96
23.793,3.90231,96
23.80133,3.90308,96
23.80967,3.90403,96
23.818,3.90483,96
23.82633,3.90559,96
23.83467,3.90633,96
23.843,3.90718,97
23.85133,3.90798,97
23.85967,3.90882,97
23.868,3.90956,97
23.87633,3.91042,97
23.88467,3.91117,97
23.893,3.91196,97
23.90133,3.91276,97
23.90967,3.91368,97
23.918,3.9144,97
23.92633,3.91517,97
23.93467,3.91607,97
23.943,3.91699,97
23.95133,3.91759,97
23.95967,3.91849,97
23.968,3.91937,97
23.97633,3.92002,97
23.98467,3.92093,97
23.993,3.92173,97
24.00133,3.92244,97
24.00967,3.92321,97
24.018,3.92424,97
24.02633,3.92508,97
24.03467,3.92574,97
24.043,3.9265,97
24.05133,3.92734,97
24.05967,3.9282,97
24.068,3.92902,97
24.07633,3.92981,97
24.08467,3.93068,97
24.093,3.93157,97
24.10133,3.93234,98
24.10967,3.93324,98
24.118,3.93398,98
24.12633,3.93485,98
24.13467,3.93567,98
24.143,3.93636,98
24.15133,3.93733,98
24.15967,3.93808,98
24.168,3.93898,98
24.17633,3.9397,98
24.18467,3.94046,98
24.193,3.94141,98
24.20133,3.9423,98
24.20967,3.94301,98
24.218,3.94389,98
24.22633,3.94471,98
24.23467,3.94558,98
24.243,3.94648,98
24.25133,3.94728,98
24.25967,3.94816,98
24.268,3.94887,98
24.27633,3.94983,98
24.28467,3.95064,98
24.293,3.95142,98
24.30133,3.95231,98
24.30967,3.95305,98
24.318,3.95398,98
24.32634,3.95496,98
24.33467,3.95563,98
24.343,3.95661,98
24.35134,3.95735,99
24.35967,3.95823,99
24.368,3.95909,99
24.37634,3.96004,99
24.38467,3.96064,99
24.393,3.9616,99
24.40134,3.96261,99
24.40967,3.96339,99
24.418,3.96433,99
24.42634,3.96502,99
24.43467,3.966,99
24.443,3.9669,99
24.45134,3.96779,99
24.45967,3.96863,99
24.468,3.96947,99
24.47634,3.97033,99
24.48467,3.9712,99
24.493,3.97208,99
24.50134,3.97295,99
24.50967,3.97385,99
24.518,3.97467,99
24.52634,3.97555,99
24.53467,3.97641,99
24.543,3.97728,99
24.55134,3.97814,99
24.55967,3.97902,99
24.568,3.98003,99
24.57634,3.98091,99
24.58467,3.98176,99
24.593,3.98276,99
24.60134,3.98353,99
24.60967,3.98445,100
24.618,3.9853,100
24.62634,3.98628,100
24.63467,3.98705,100
24.643,3.98807,100
24.65134,3.98888,100
24.65967,3.98976,100
24.668,3.99068,100
24.67634,3.99163,100
24.68467,3.99256,100
24.693,3.99349,100
24.70134,3.99434,100
24.70967,3.99529,100
24.718,3.99617,100
24.72634,3.99719,100
24.73467,3.99814,100
24.743,3.99907,100
24.75134,3.9998,100
24.75967,4.00079,100
24.768,4.00166,100
24.77634,4.00263,100
24.78467,4.00355,100
24.793,4.0044,100
24.80134,4.00543,100
24.80967,4.00632,100
24.818,4.00728,100
24.82634,4.00826,100
24.83467,4.00912,100
24.84301,4.0101,100
24.85134,4.01099,100
24.85967,4.01193,100
24.86801,4.01295,101
24.87634,4.01379,101
24.88467,4.01487,101
24.89301,4.0158,101
24.90134,4.01678,101
24.90967,4.01766,101
24.91801,4.01874,101
24.92634,4.01948,101
24.93467,4.02071,101
24.94301,4.02153,101
24.95134,4.02247,101
24.95967,4.02347,101
24.96801,4.02432,101
24.97634,4.02534,101
24.98467,4.02644,101
24.99301,4.02733,101
25.00134,4.02834,101
25.00967,4.02922,101
25.01801,4.03031,101
25.02634,4.03128,101
25.03467,4.03221,101
25.04301,4.03325,101
25.05134,4.03421,101
25.05967,4.03515,101
25.06801,4.03604,101
25.07634,4.03716,101
25.08467,4.03803,101
25.09301,4.03905,101
25.10134,4.04012,101
25.10967,4.04097,101
25.11801,4.04202,102
25.12634,4.04303,102
25.13467,4.04401,102
25.14301,4.04524,102
25.15134,4.0462,102
25.15967,4.04702,102
25.16801,4.04807,102
25.17634,4.04913,102
25.18467,4.05024,102
25.19301,4.05125,102
25.20134,4.0522,102
25.20967,4.05326,102
25.21801,4.0544,102
25.22634,4.05525,102
25.23467,4.05618,102
25.24301,4.05738,102
25.25134,4.05831,102
25.25967,4.0595,102
25.26801,4.0604,102
25.27634,4.06152,102
25.28467,4.06247,102
25.29301,4.06351,102
25.30134,4.06449,102
25.30967,4.06567,102
25.31801,4.06664,102
25.32634,4.06774,102
25.33467,4.06878,102
25.34301,4.06972,102
25.35134,4.07091,102
25.35968,4.07197,102
25.36801,4.07304,102
25.37634,4.07398,103
25.38468,4.07514,103
25.39301,4.07619,103
25.40134,4.07727,103
25.40968,4.07852,103
25.41801,4.07942,103
25.42634,4.08056,103
25.43468,4.08161,103
25.44301,4.08271,103
25.45134,4.08379,103
25.45968,4.08486,103
25.46801,4.08589,103
25.47634,4.08708,103
25.48468,4.08809,103
25.49301,4.08927,103
25.50134,4.09034,103
25.50968,4.09139,103
25.51801,4.09252,103
25.52634,4.09357,103
25.53468,4.09483,103
25.54301,4.0959,103
25.55134,4.09699,103
25.55968,4.09802,103
25.56801,4.09919,103
25.57634,4.10047,103
25.58468,4.10147,103
25.59301,4.10256,103
25.60134,4.10369,103
25.60968,4.10477,103
25.61801,4.10587,103
25.62634,4.10702,104
25.63468,4.10814,104
25.64301,4.10921,104
25.65134,4.11046,104
25.65968,4.11156,104
25.66801,4.11274,104
25.67634,4.11383,104
25.68468,4.11497,104
25.69301,4.1162,104
25.70134,4.11733,104
25.70968,4.11864,104
25.71801,4.11963,104
25.72634,4.12071,104
25.73468,4.1219,104
25.74301,4.12317,104
25.75134,4.12432,104
25.75968,4.12547,104
25.76801,4.12658,104
25.77634,4.12786,104
25.78468,4.12901,104
25.79301,4.13022,104
25.80134,4.13133,104
25.80968,4.13251,104
25.81801,4.13357,104
25.82634,4.13485,104
25.83468,4.13611,104
25.84301,4.1372,104
25.85134,4.13846,104
25.85968,4.13966,104
25.86801,4.14088,104
25.87635,4.14208,104
25.88468,4.14331,105
25.89301,4.14444,105
25.90135,4.14569,105
25.90968,4.14703,105
25.91801,4.14808,105
25.92635,4.14929,105
25.93468,4.15046,105
25.94301,4.1517,105
25.95135,4.15289,105
25.95968,4.15415,105
25.96801,4.15549,105
25.97635,4.15673,105
25.98468,4.15791,105
25.99301,4.15907,105
26.00135,4.16023,105
26.00968,4.16141,105
26.01801,4.16287,105
26.02635,4.16407,105
26.03468,4.1652,105
26.04301,4.16632,105
26.05135,4.16766,105
26.05968,4.16892,105
26.06801,4.1701,105
26.07635,4.17148,105
26.08468,4.17252,105
26.09301,4.17383,105
26.10135,4.17503,105
26.10968,4.17631,105
26.11801,4.17769,105
26.12635,4.17886,105
26.13468,4.18013,105
26.14301,4.18133,106
26.15135,4.1826,106
26.15968,4.18382,106
26.16801,4.18512,106
26.17635,4.18646,106
26.18468,4.18763,106
26.19301,4.18886,106
26.20135,4.19009,106
26.20968,4.19139,106
26.21801,4.19266,106
26.22635,4.19398,106
26.23468,4.1953,106
26.24301,4.19653,106
26.25135,4.19788,106
26.25968,4.19905,106
26.26801,4.20036,106
26.27635,4.20167,106
26.28468,4.20292,106
26.29301,4.2042,106
26.30135,4.20558,106
26.30968,4.20686,106
26.31801,4.20821,106
26.32635,4.20935,106
26.33468,4.21064,106
26.34301,4.21195,106
26.35135,4.2132,106
26.35968,4.21453,106
26.36801,4.21584,106
26.37635,4.21712,106
26.38468,4.21837,106
26.39302,4.21963,107
26.40135,4.22099,107
26.40968,4.22243,107
26.41802,4.22357,107
26.42635,4.22491,107
26.43468,4.22605,107
26.44302,4.22742,107
26.45135,4.22882,107
26.45968,4.22993,107
26.46802,4.23133,107
26.47635,4.23256,107
26.48468,4.2339,107
26.49302,4.23528,107
26.50135,4.23643,107
26.50968,4.2378,107
26.51802,4.23897,107
26.52635,4.2404,107
26.53468,4.24157,107
26.54302,4.24291,107
26.55135,4.24421,107
26.55968,4.24551,107
26.56802,4.2466,107
26.57635,4.24818,107
26.58468,4.24926,107
26.59302,4.25062,107
26.60135,4.25194,107
26.60968,4.25327,107
26.61802,4.25456,107
26.62635,4.2558,107
26.63468,4.25729,107
26.64302,4.25843,107
26.65135,4.2597,108
26.65968,4.26105,108
26.66802,4.26236,108
26.67635,4.26373,108
26.68468,4.26499,108
26.69302,4.26616,108
26.70135,4.26748,108
26.70968,4.2689,108
26.71802,4.27013,108
26.72635,4.27141,108
26.73468,4.27274,108
26.74302,4.274,108
26.75135,4.27534,108
26.75968,4.27665,108
26.76802,4.27798,108
26.77635,4.27937,108
26.78468,4.28053,108
26.79302,4.28178,108
26.80135,4.28312,108
26.80968,4.28435,108
26.81802,4.28567,108
26.82635,4.28702,108
26.83468,4.28833,108
26.84302,4.28956,108
26.85135,4.29095,108
26.85968,4.29219,108
26.86802,4.29343,108
26.87635,4.29467,108
26.88468,4.29595,108
26.89302,4.29728,108
26.90135,4.29865,109
26.90969,4.29978,109
26.91802,4.30124,109
26.92635,4.30252,109
26.93469,4.30371,109
26.94302,4.30501,109
26.95135,4.3063,109
26.95969,4.30767,109
26.96802,4.30899,109
26.97635,4.31025,109
26.98469,4.31149,109
26.99302,4.3128,109
27.00135,4.31412,109
27.00969,4.31555,109
27.01802,4.31669,109
27.02635,4.31799,109
27.03469,4.31922,109
27.04302,4.32055,109
27.05135,4.32183,109
27.05969,4.32313,109
27.06802,4.32447,109
27.07635,4.3257,109
27.08469,4.32698,109
27.09302,4.32827,109
27.10135,4.32957,109
27.10969,4.33094,109
27.11802,4.33216,109
27.12635,4.3335,109
27.13469,4.33471,109
27.14302,4.33603,109
27.15135,4.33727,109
27.15969,4.33863,110
27.16802,4.33999,110
27.17635,4.3412,110
27.18469,4.3425,110
27.19302,4.34378,110
27.20135,4.34505,110
27.20969,4.34631,110
27.21802,4.34785,110
27.22635,4.349,110
27.23469,4.35037,110
27.24302,4.35167,110
27.25135,4.35303,110
27.25969,4.35421,110
27.26802,4.3555,110
27.27635,4.3569,110
27.28469,4.3582,110
27.29302,4.35952,110
27.30135,4.36069,110
27.30969,4.36212,110
27.31802,4.3634,110
27.32635,4.36465,110
27.33469,4.36579,110
27.34302,4.3672,110
27.35135,4.3684,110
27.35969,4.36967,110
27.36802,4.37111,110
27.37635,4.3723,110
27.38469,4.37351,110
27.39302,4.3748,110
27.40135,4.37634,110
27.40969,4.37743,110
27.41802,4.37881,111
27.42636,4.38012,111
27.43469,4.38139,111
27.44302,4.38263,111
27.45136,4.38389,111
27.45969,4.38508,111
27.46802,4.38636,111
27.47636,4.38793,111
27.48469,4.38906,111
27.49302,4.39038,111
27.50136,4.39171,111
27.50969,4.39298,111
27.51802,4.39429,111
27.52636,4.39558,111
27.53469,4.39681,111
27.54302,4.39817,111
27.55136,4.39941,111
27.55969,4.40075,111
27.56802,4.40206,111
27.57636,4.40335,111
27.58469,4.40473,111
27.59302,4.40583,111
27.60136,4.40725,111
27.60969,4.40845,111
27.61802,4.40967,111
27.62636,4.41108,111
27.63469,4.41233,111
27.64302,4.41374,111
27.65136,4.41503,111
27.65969,4.41629,111
27.66802,4.41759,112
27.67636,4.41887,112
27.68469,4.42018,112
27.69302,4.42151,112
27.70136,4.42284,112
27.70969,4.42417,112
27.71802,4.42547,112
27.72636,4.42686,112
27.73469,4.42819,112
27.74302,4.42952,112
27.75136,4.43083,112
27.75969,4.43225,112
27.76802,4.43351,112
27.77636,4.43482,112
27.78469,4.43621,112
27.79302,4.43755,112
27.80136,4.43878,112
27.80969,4.44012,112
27.81802,4.44139,112
27.82636,4.44278,112
27.83469,4.44409,112
27.84302,4.4455,112
27.85136,4.4468,112
27.85969,4.44814,112
27.86802,4.44957,112
27.87636,4.45092,112
27.88469,4.45237,112
27.89302,4.45368,112
27.90136,4.45506,112
27.90969,4.45644,112
27.91802,4.45763,112
27.92636,4.45912,113
27.93469,4.46036,113
27.94303,4.46176,113
27.95136,4.4632,113
27.95969,4.46449,113
27.96803,4.46579,113
27.97636,4.46726,113
27.98469,4.46862,113
27.99303,4.47006,113
28.00136,4.4714,113
28.00969,4.47277,113
28.01803,4.47408,113
28.02636,4.47561,113
28.03469,4.47711,113
28.04303,4.47856,113
28.05136,4.47995,113
28.05969,4.48124,113
28.06803,4.48271,113
28.07636,4.48395,113
28.08469,4.4855,113
28.09303,4.48683,113
28.10136,4.4882,113
28.10969,4.48961,113
28.11803,4.49101,113
28.12636,4.49252,113
28.13469,4.49374,113
28.14303,4.49522,113
28.15136,4.49664,113
28.15969,4.49813,113
28.16335,4.49871,113